	sphere				Shell model (no microstructure) 				Microstructure model		
Time(s)	Volume averaged	surface	center		volume averaged	surface	center		volume averaged	surface	center
0	293.15001	293.15003	293.15		293.15	293.15	293.15		293.15	293.14982	293.15
0.05	359.99112	414.61916	300.12268		379.56483	454.93534	337.48294		377.46365	470.26586	321.82355
0.1	409.3904	463.72398	334.34686		439.75808	523.1254	392.89226		435.49713	534.72385	371.48518
0.15	449.78711	500.89523	373.35649		485.33757	568.08036	438.84328		480.32938	577.79296	416.53914
0.2	484.22294	531.52371	410.6372		522.78236	602.14971	477.98793		517.47851	610.50621	456.31592
0.25	514.68244	558.12952	445.31457		554.43985	629.20074	511.88921		548.08472	635.42033	490.5223
0.3	541.06692	580.81282	476.63792		582.46637	652.09705	542.38777		574.17188	655.44303	520.43553
0.35	564.03278	600.35474	504.58309		606.59642	670.81191	569.11715		596.6268	671.81937	546.68315
0.4	584.15065	617.35416	529.42965		627.25765	686.05469	592.3894		616.10464	685.39935	569.8036
0.45	601.88912	632.26656	551.55003		644.98864	698.55916	612.66775		633.10461	696.78596	590.24705
0.5	617.6213	645.43829	571.30813		660.27394	708.91987	630.39604		648.6127	706.89918	609.05426
0.55	631.64378	657.13764	589.02216		673.51423	717.58809	645.95523		662.4211	715.61322	625.97315
0.6	644.19535	667.57754	604.9595		685.0336	724.90218	659.66109		674.60107	723.04308	641.0579
0.65	655.47066	676.93013	619.34244		695.09413	731.11798	671.77335		685.32803	729.3782	654.48373
0.7	665.63055	685.33673	632.35656		703.90935	736.43208	682.5066		694.78682	734.79984	666.44313
0.75	674.80948	692.91484	644.1583		711.65498	740.99809	692.0396		703.14435	739.4612	677.11395
0.8	683.12106	699.76324	654.88097		718.47708	744.93802	700.52271		710.5447	743.48709	686.65226
0.85	690.66223	705.96573	664.63926		724.49807	748.35009	708.08352		717.11065	746.97843	695.19276
0.9	697.51632	711.59403	673.53267		729.82147	751.31435	714.83125		722.94674	750.01717	702.85138
0.95	703.75552	716.70995	681.64812		734.53534	753.89667	720.86		728.14236	752.67037	709.72824
1	709.4427	721.36712	689.06197		738.71508	756.15173	726.25136		732.77429	754.99337	715.91014
1.05	714.633	725.61233	695.84163		742.42558	758.12523	731.07646		736.90878	757.03226	721.47269
1.1	719.37495	729.48663	702.0469		745.72293	759.85566	735.39758		740.60329	758.82567	726.48208
1.15	723.71147	733.02621	707.73098		748.65583	761.37556	739.26945		743.90784	760.40619	730.99647
1.2	727.68068	736.26307	712.9414		751.26665	762.71262	742.74034		746.86614	761.80153	735.0672
1.25	731.31654	739.22567	717.72073		753.59245	763.8905	745.85294		749.51648	763.03529	738.73973
1.3	734.64939	741.93935	722.1072		755.66566	764.92946	748.6451		751.89256	764.12773	742.05441
1.35	737.70644	744.42678	726.13525		757.51477	765.84695	751.15045		754.02406	765.09628	745.04717
1.4	740.51215	746.70827	729.83595		759.16485	766.65803	753.3989		755.93721	765.956	747.75009
1.45	743.08852	748.80209	733.23737		760.63798	767.37575	755.41713		757.65523	766.71993	750.19183
1.5	745.45544	750.72468	736.36498		761.95369	768.01141	757.22895		759.1987	767.39942	752.39809
1.55	747.63089	752.4909	739.24184		763.12922	768.57487	758.85564		760.58592	768.00433	754.3919
1.6	749.63113	754.11416	741.88894		764.17986	769.07469	760.31622		761.83315	768.54332	756.19396
1.65	751.47095	755.60664	744.32537		765.11915	769.51839	761.62773		762.9549	769.02393	757.82287
1.7	753.16378	756.97937	746.5685		765.95912	769.91251	762.80543		763.96407	769.45279	759.2954
1.75	754.72183	758.24237	748.63419		766.71046	770.2628	763.86299		764.87223	769.83573	760.62663
1.8	756.15622	759.40477	750.53692		767.38266	770.57432	764.81267		765.68967	770.17788	761.83018
1.85	757.47711	760.47488	752.28991		767.98417	770.8515	765.66548		766.42563	770.48376	762.91831
1.9	758.69375	761.46029	753.90526		768.52253	771.09825	766.43128		767.08836	770.75736	763.90212
1.95	759.81462	762.3679	755.39404		769.00445	771.318	767.11895		767.68525	771.00221	764.79159
2	760.84745	763.20403	756.76639		769.43589	771.51379	767.73644		768.22294	771.22144	765.59578
2.05	761.79933	763.97448	758.03161		769.82221	771.6883	768.29089		768.70737	771.41781	766.32284
2.1	762.67674	764.68452	759.19822		770.16817	771.8439	768.78872		769.14388	771.59377	766.98016
2.15	763.48565	765.339	760.27403		770.478	771.98269	769.2357		769.53726	771.75152	767.57442
2.2	764.23149	765.94236	761.26624		770.75552	772.10653	769.637		769.89182	771.89299	768.11163
2.25	764.91927	766.49867	762.18144		771.00411	772.21705	769.99728		770.21141	772.0199	768.59727
2.3	765.55359	767.01167	763.02568		771.22682	772.31572	770.32072		770.49951	772.13378	769.03627
2.35	766.13866	767.48478	763.80454		771.42634	772.40384	770.61107		770.75926	772.23601	769.43309
2.4	766.67837	767.92116	764.52314		771.60511	772.48254	770.87171		770.99345	772.32781	769.79176
2.45	767.17627	768.32369	765.1862		771.76529	772.55286	771.10566		771.20463	772.41026	770.11594
2.5	767.63565	768.69504	765.79805		771.90883	772.6157	771.31565		771.39506	772.48432	770.40894
2.55	768.05951	769.03765	766.36268		772.03745	772.67186	771.50413		771.56679	772.55088	770.67373
2.6	768.45063	769.35377	766.88377		772.15272	772.72207	771.67328		771.72168	772.61071	770.91303
2.65	768.81156	769.64546	767.3647		772.25603	772.76696	771.8251		771.86137	772.66449	771.12928
2.7	769.14466	769.91464	767.80859		772.34862	772.80711	771.96134		771.98737	772.71285	771.32469
2.75	769.45208	770.16306	768.21831		772.43161	772.84302	772.0836		772.10103	772.75635	771.50126
2.8	769.73582	770.39233	768.59651		772.50599	772.87514	772.19331		772.20355	772.79547	771.6608
2.85	769.99772	770.60394	768.94562		772.57266	772.90388	772.29176		772.29603	772.83067	771.80494
2.9	770.23947	770.79925	769.2679		772.63242	772.9296	772.3801		772.37946	772.86235	771.93518
2.95	770.46263	770.97954	769.56542		772.68599	772.95261	772.45936		772.45473	772.89086	772.05283
3	770.66863	771.14596	769.84009		772.73401	772.97321	772.53047		772.52263	772.91652	772.15912
3.05	770.8588	771.29959	770.09367		772.77705	772.99165	772.59428		772.5839	772.93962	772.25514
3.1	771.03437	771.44141	770.32779		772.81564	773.00815	772.65152		772.63917	772.96041	772.34187
3.15	771.19645	771.57234	770.54394		772.85023	773.02293	772.70288		772.68904	772.97914	772.42022
3.2	771.3461	771.69321	770.74351		772.88124	773.03616	772.74895		772.73403	772.99601	772.49099
3.25	771.48426	771.8048	770.92777		772.90904	773.04801	772.79028		772.77463	773.0112	772.55491
3.3	771.61182	771.90784	771.09791		772.93396	773.05862	772.82736		772.81127	773.02488	772.61264
3.35	771.7296	772.00296	771.25501		772.95631	773.06813	772.86062		772.84432	773.03721	772.66479
3.4	771.83835	772.0908	771.40006		772.97634	773.07664	772.89046		772.87415	773.04832	772.71188
3.45	771.93876	772.17189	771.534		772.9943	773.08426	772.91722		772.90106	773.05832	772.75441
3.5	772.03148	772.24677	771.65768		773.0104	773.09109	772.94123		772.92535	773.06734	772.79282
3.55	772.11709	772.31591	771.77189		773.02484	773.09721	772.96276		772.94726	773.07547	772.8275
3.6	772.19614	772.37975	771.87734		773.03778	773.10269	772.98207		772.96704	773.08279	772.85883
3.65	772.26914	772.43871	771.97472		773.04938	773.1076	772.9994		772.98489	773.0894	772.88711
3.7	772.33655	772.49314	772.06465		773.05978	773.112	773.01494		773.00099	773.09535	772.91265
3.75	772.39879	772.54341	772.14769		773.06911	773.11594	773.02887		773.01552	773.10071	772.93571
3.8	772.45627	772.58982	772.22437		773.07747	773.11947	773.04137		773.02864	773.10555	772.95654
3.85	772.50934	772.63268	772.29518		773.08497	773.12264	773.05258		773.04047	773.10991	772.97534
3.9	772.55836	772.67226	772.36057		773.09169	773.12548	773.06264		773.05115	773.11384	772.99232
3.95	772.60362	772.70881	772.42096		773.09772	773.12802	773.07165		773.06079	773.11738	773.00765
4	772.64542	772.74256	772.47673		773.10313	773.1303	773.07974		773.06949	773.12058	773.02149
4.05	772.68401	772.77373	772.52823		773.10797	773.13234	773.08699		773.07734	773.12346	773.03399
4.1	772.71966	772.80251	772.57578		773.11232	773.13417	773.0935		773.08442	773.12606	773.04527
4.15	772.75258	772.82909	772.6197		773.11621	773.13581	773.09933		773.09082	773.1284	773.05545
4.2	772.78297	772.85364	772.66026		773.1197	773.13728	773.10456		773.09659	773.13052	773.06465
4.25	772.81105	772.87631	772.69772		773.12284	773.1386	773.10925		773.10179	773.13242	773.07295
4.3	772.83697	772.89724	772.73231		773.12564	773.13978	773.11346		773.10649	773.13414	773.08045
4.35	772.86091	772.91657	772.76425		773.12816	773.14083	773.11724		773.11073	773.13569	773.08722
4.4	772.88302	772.93443	772.79375		773.13042	773.14178	773.12062		773.11456	773.13709	773.09332
4.45	772.90344	772.95091	772.821		773.13244	773.14263	773.12365		773.11802	773.13836	773.09884
4.5	772.92229	772.96614	772.84616		773.13426	773.1434	773.12637		773.12113	773.13949	773.10382
4.55	772.93971	772.9802	772.86939		773.13588	773.14408	773.12881		773.12395	773.14052	773.10831
4.6	772.95579	772.99319	772.89085		773.13734	773.14469	773.131		773.12649	773.14145	773.11237
4.65	772.97064	773.00518	772.91067		773.13865	773.14524	773.13296		773.12878	773.14228	773.11603
4.7	772.98436	773.01625	772.92897		773.13982	773.14573	773.13472		773.13085	773.14304	773.11934
4.75	772.99702	773.02648	772.94587		773.14088	773.14618	773.1363		773.13271	773.14372	773.12232
4.8	773.00872	773.03593	772.96148		773.14182	773.14657	773.13772		773.1344	773.14433	773.12502
4.85	773.01952	773.04465	772.9759		773.14266	773.14693	773.13899		773.13592	773.14488	773.12745
4.9	773.0295	773.05271	772.98921		773.14342	773.14724	773.14012		773.13729	773.14538	773.12965
4.95	773.03872	773.06015	773.00151		773.1441	773.14753	773.14114		773.13853	773.14583	773.13163
5	773.04723	773.06702	773.01286		773.14471	773.14778	773.14206		773.13965	773.14624	773.13342
5.05	773.05508	773.07336	773.02335		773.14526	773.14801	773.14288		773.14066	773.14661	773.13503
5.1	773.06234	773.07922	773.03303		773.14575	773.14822	773.14361		773.14157	773.14694	773.13649
5.15	773.06904	773.08463	773.04198		773.14619	773.1484	773.14427		773.14239	773.14724	773.1378
5.2	773.07523	773.08963	773.05024		773.14658	773.14857	773.14487		773.14313	773.14751	773.13899
5.25	773.08095	773.09425	773.05786		773.14694	773.14872	773.1454		773.1438	773.14775	773.14006
5.3	773.08623	773.09851	773.06491		773.14725	773.14885	773.14587		773.1444	773.14797	773.14103
5.35	773.09111	773.10245	773.07142		773.14754	773.14897	773.1463		773.14495	773.14817	773.1419
5.4	773.09561	773.10608	773.07742		773.14779	773.14907	773.14668		773.14544	773.14835	773.14269
5.45	773.09977	773.10944	773.08297		773.14802	773.14917	773.14702		773.14589	773.14851	773.1434
5.5	773.10361	773.11254	773.0881		773.14822	773.14926	773.14733		773.14629	773.14865	773.14405
5.55	773.10716	773.11541	773.09283		773.14841	773.14933	773.14761		773.14665	773.14879	773.14463
5.6	773.11043	773.11805	773.0972		773.14857	773.1494	773.14785		773.14698	773.1489	773.14515
5.65	773.11346	773.12049	773.10124		773.14872	773.14946	773.14808		773.14727	773.14901	773.14562
5.7	773.11625	773.12275	773.10497		773.14885	773.14952	773.14827		773.14754	773.14911	773.14605
5.75	773.11883	773.12483	773.10841		773.14897	773.14957	773.14845		773.14778	773.14919	773.14643
5.8	773.12122	773.12676	773.11159		773.14908	773.14961	773.14861		773.14799	773.14927	773.14678
5.85	773.12342	773.12854	773.11453		773.14917	773.14965	773.14876		773.14819	773.14934	773.14709
5.9	773.12545	773.13018	773.11724		773.14926	773.14969	773.14888		773.14837	773.14941	773.14738
5.95	773.12733	773.13169	773.11975		773.14933	773.14972	773.149		773.14852	773.14947	773.14763
6	773.12906	773.13309	773.12206		773.1494	773.14975	773.1491		773.14867	773.14952	773.14786
6.05	773.13066	773.13438	773.12419		773.14946	773.14978	773.1492		773.1488	773.14956	773.14807
6.1	773.13214	773.13558	773.12617		773.14952	773.1498	773.14928		773.14892	773.14961	773.14826
6.15	773.13351	773.13668	773.12799		773.14957	773.14982	773.14935		773.14902	773.14965	773.14843
6.2	773.13477	773.1377	773.12967		773.14961	773.14984	773.14942		773.14912	773.14968	773.14858
6.25	773.13593	773.13864	773.13123		773.14965	773.14986	773.14948		773.1492	773.14971	773.14872
6.3	773.13701	773.13951	773.13266		773.14969	773.14987	773.14953		773.14928	773.14974	773.14885
6.35	773.138	773.14031	773.13399		773.14972	773.14988	773.14958		773.14935	773.14976	773.14896
6.4	773.13892	773.14105	773.13521		773.14975	773.1499	773.14963		773.14941	773.14979	773.14906
6.45	773.13977	773.14174	773.13634		773.14978	773.14991	773.14966		773.14947	773.14981	773.14915
6.5	773.14055	773.14237	773.13739		773.1498	773.14992	773.1497		773.14952	773.14983	773.14923
6.55	773.14127	773.14295	773.13835		773.14982	773.14992	773.14973		773.14957	773.14984	773.14931
6.6	773.14194	773.14349	773.13924		773.14984	773.14993	773.14976		773.14961	773.14986	773.14938
6.65	773.14255	773.14399	773.14006		773.14986	773.14994	773.14978		773.14965	773.14987	773.14944
6.7	773.14312	773.14445	773.14082		773.14987	773.14995	773.14981		773.14968	773.14989	773.14949
6.75	773.14365	773.14487	773.14153		773.14988	773.14995	773.14983		773.14971	773.1499	773.14954
6.8	773.14413	773.14526	773.14217		773.1499	773.14996	773.14984		773.14974	773.14991	773.14959
6.85	773.14458	773.14563	773.14277		773.14991	773.14996	773.14986		773.14977	773.14992	773.14963
6.9	773.145	773.14596	773.14332		773.14992	773.14996	773.14987		773.14979	773.14992	773.14966
6.95	773.14538	773.14627	773.14384		773.14992	773.14997	773.14989		773.14981	773.14993	773.1497
7	773.14573	773.14655	773.14431		773.14993	773.14997	773.1499		773.14983	773.14994	773.14973
7.05	773.14606	773.14682	773.14474		773.14994	773.14997	773.14991		773.14985	773.14994	773.14975
7.1	773.14636	773.14706	773.14514		773.14995	773.14998	773.14992		773.14986	773.14995	773.14978
7.15	773.14664	773.14729	773.14552		773.14995	773.14998	773.14993		773.14987	773.14995	773.1498
7.2	773.1469	773.14749	773.14586		773.14996	773.14998	773.14993		773.14989	773.14996	773.14982
7.25	773.14713	773.14769	773.14617		773.14996	773.14998	773.14994		773.1499	773.14996	773.14984
7.3	773.14735	773.14786	773.14647		773.14996	773.14999	773.14995		773.14991	773.14997	773.14985
7.35	773.14755	773.14803	773.14674		773.14997	773.14999	773.14995		773.14992	773.14997	773.14987
7.4	773.14774	773.14818	773.14699		773.14997	773.14999	773.14996		773.14992	773.14997	773.14988
7.45	773.14791	773.14832	773.14722		773.14997	773.14999	773.14996		773.14993	773.14998	773.14989
7.5	773.14807	773.14844	773.14743		773.14998	773.14999	773.14997		773.14994	773.14998	773.1499
7.55	773.14822	773.14856	773.14763		773.14998	773.14999	773.14997		773.14994	773.14998	773.14991
7.6	773.14836	773.14867	773.14781		773.14998	773.14999	773.14997		773.14995	773.14998	773.14992
7.65	773.14848	773.14877	773.14798		773.14998	773.14999	773.14998		773.14995	773.14998	773.14993
7.7	773.1486	773.14887	773.14813		773.14999	773.14999	773.14998		773.14996	773.14999	773.14993
7.75	773.14871	773.14896	773.14827		773.14999	773.14999	773.14998		773.14996	773.14999	773.14994
7.8	773.1488	773.14904	773.14841		773.14999	773.15	773.14998		773.14997	773.14999	773.14995
7.85	773.1489	773.14911	773.14853		773.14999	773.15	773.14998		773.14997	773.14999	773.14995
7.9	773.14898	773.14918	773.14864		773.14999	773.15	773.14999		773.14997	773.14999	773.14996
7.95	773.14906	773.14924	773.14874		773.14999	773.15	773.14999		773.14998	773.14999	773.14996
8	773.14913	773.1493	773.14884		773.14999	773.15	773.14999		773.14998	773.14999	773.14996
8.05	773.1492	773.14935	773.14893		773.14999	773.15	773.14999		773.14998	773.14999	773.14997
8.1	773.14926	773.1494	773.14901		773.14999	773.15	773.14999		773.14998	773.14999	773.14997
8.15	773.14932	773.14945	773.14909		773.14999	773.15	773.14999		773.14998	773.14999	773.14997
8.2	773.14937	773.14949	773.14916		773.15	773.15	773.14999		773.14999	773.14999	773.14998
8.25	773.14942	773.14953	773.14922		773.15	773.15	773.14999		773.14999	773.15	773.14998
8.3	773.14946	773.14956	773.14928		773.15	773.15	773.14999		773.14999	773.15	773.14998
8.35	773.1495	773.1496	773.14934		773.15	773.15	773.14999		773.14999	773.15	773.14998
8.4	773.14954	773.14963	773.14939		773.15	773.15	773.15		773.14999	773.15	773.14998
8.45	773.14958	773.14966	773.14943		773.15	773.15	773.15		773.14999	773.15	773.14999
8.5	773.14961	773.14968	773.14948		773.15	773.15	773.15		773.14999	773.15	773.14999
8.55	773.14964	773.14971	773.14952		773.15	773.15	773.15		773.14999	773.15	773.14999
8.6	773.14967	773.14973	773.14955		773.15	773.15	773.15		773.14999	773.15	773.14999
8.65	773.14969	773.14975	773.14959		773.15	773.15	773.15		773.14999	773.15	773.14999
8.7	773.14971	773.14977	773.14962		773.15	773.15	773.15		773.14999	773.15	773.14999
8.75	773.14974	773.14979	773.14965		773.15	773.15	773.15		773.15	773.15	773.14999
8.8	773.14976	773.1498	773.14968		773.15	773.15	773.15		773.15	773.15	773.14999
8.85	773.14978	773.14982	773.1497		773.15	773.15	773.15		773.15	773.15	773.14999
8.9	773.14979	773.14983	773.14972		773.15	773.15	773.15		773.15	773.15	773.14999
8.95	773.14981	773.14985	773.14974		773.15	773.15	773.15		773.15	773.15	773.14999
9	773.14982	773.14986	773.14976		773.15	773.15	773.15		773.15	773.15	773.15
9.05	773.14984	773.14987	773.14978		773.15	773.15	773.15		773.15	773.15	773.15
9.1	773.14985	773.14988	773.1498		773.15	773.15	773.15		773.15	773.15	773.15
9.15	773.14986	773.14989	773.14981		773.15	773.15	773.15		773.15	773.15	773.15
9.2	773.14987	773.1499	773.14983		773.15	773.15	773.15		773.15	773.15	773.15
9.25	773.14988	773.1499	773.14984		773.15	773.15	773.15		773.15	773.15	773.15
9.3	773.14989	773.14991	773.14985		773.15	773.15	773.15		773.15	773.15	773.15
9.35	773.1499	773.14992	773.14986		773.15	773.15	773.15		773.15	773.15	773.15
9.4	773.14991	773.14992	773.14987		773.15	773.15	773.15		773.15	773.15	773.15
9.45	773.14991	773.14993	773.14988		773.15	773.15	773.15		773.15	773.15	773.15
9.5	773.14992	773.14994	773.14989		773.15	773.15	773.15		773.15	773.15	773.15
9.55	773.14993	773.14994	773.1499		773.15	773.15	773.15		773.15	773.15	773.15
9.6	773.14993	773.14994	773.14991		773.15	773.15	773.15		773.15	773.15	773.15
9.65	773.14994	773.14995	773.14992		773.15	773.15	773.15		773.15	773.15	773.15
9.7	773.14994	773.14995	773.14992		773.15	773.15	773.15		773.15	773.15	773.15
9.75	773.14995	773.14996	773.14993		773.15	773.15	773.15		773.15	773.15	773.15
9.8	773.14995	773.14996	773.14993		773.15	773.15	773.15		773.15	773.15	773.15
9.85	773.14995	773.14996	773.14994		773.15	773.15	773.15		773.15	773.15	773.15
9.9	773.14996	773.14997	773.14994		773.15	773.15	773.15		773.15	773.15	773.15
9.95	773.14996	773.14997	773.14995		773.15	773.15	773.15		773.15	773.15	773.15
10	773.14996	773.14997	773.14995		773.15	773.15	773.15		773.15	773.15	773.15
